freq,resp
1.0,1.6835873
2.0,2.9704659
3.0,4.2959712
4.0,5.6559178
5.0,7.0275887
6.0,8.3993809
7.0,9.7705829
8.0,11.137689
9.0,12.499587
10.0,13.8569
11.0,15.206407
12.0,16.547181
13.0,17.881241
14.0,19.205735
15.0,20.51819
16.0,21.822291
17.0,23.115969
18.0,24.394339
19.0,25.663005
20.0,26.921046
21.0,28.160565
22.0,29.389283
23.0,30.60714
24.0,31.804513
25.0,32.98966
26.0,34.163109
27.0,35.316375
28.0,36.455181
29.0,37.581678
30.0,38.688782
31.0,39.779284
32.0,40.857078
33.0,41.916661
34.0,42.957643
35.0,43.985713
36.0,44.997051
37.0,45.987975
38.0,46.965952
39.0,47.928889
40.0,48.869813
41.0,49.797902
42.0,50.712774
43.0,51.604264
44.0,52.483155
45.0,53.349466
46.0,54.193767
47.0,55.024552
48.0,55.843099
49.0,56.641846
50.0,57.425938
51.0,58.198209
52.0,58.952888
53.0,59.691945
54.0,60.419655
55.0,61.131935
56.0,61.827794
57.0,62.512821
58.0,63.184496
59.0,63.839119
60.0,64.483445
61.0,65.116392
62.0,65.73181
63.0,66.337479
64.0,66.933433
65.0,67.511892
66.0,68.080968
67.0,68.640879
68.0,69.185418
69.0,69.719953
70.0,70.245865
71.0,70.758381
72.0,71.260391
73.0,71.754307
74.0,72.236652
75.0,72.708098
76.0,73.171961
77.0,73.625926
78.0,74.0687
79.0,74.50438
80.0,74.931688
81.0,75.3476
82.0,75.756887
83.0,76.159184
84.0,76.549961
85.0,76.934554
86.0,77.312991
87.0,77.680685
88.0,78.042196
89.0,78.397966
90.0,78.744411
91.0,79.084359
92.0,79.418957
93.0,79.745515
94.0,80.065328
95.0,80.380157
96.0,80.688107
97.0,80.989125
98.0,81.285501
99.0,81.576043
100.0,81.859521
101.0,82.138674
102.0,82.412933
103.0,82.68004
104.0,82.94312
105.0,83.202147
106.0,83.453975
107.0,83.702052
108.0,83.946395
109.0,84.184397
110.0,84.418469
111.0,84.649062
112.0,84.874166
113.0,85.095161
114.0,85.312914
115.0,85.525945
116.0,85.734726
117.0,85.940484
118.0,86.142211
119.0,86.33958
120.0,86.534129
121.0,86.725268
122.0,86.911969
123.0,87.096039
124.0,87.277257
125.0,87.453982
126.0,87.628251
127.0,87.800075
128.0,87.96756
129.0,88.132658
130.0,88.295472
131.0,88.454506
132.0,88.611018
133.0,88.765394
134.0,88.916497
135.0,89.064966
136.0,89.211437
137.0,89.355091
138.0,89.496021
139.0,89.635082
140.0,89.771737
141.0,89.905597
142.0,90.037707
143.0,90.167783
144.0,90.295008
145.0,90.420593
146.0,90.54448
147.0,90.665476
148.0,90.784935
149.0,90.902863
150.0,91.01814
151.0,91.131841
152.0,91.244107
153.0,91.354058
154.0,91.462347
155.0,91.569286
156.0,91.674219
157.0,91.777414
158.0,91.879342
159.0,91.979541
160.0,92.077941
161.0,92.17515
162.0,92.270882
163.0,92.364766
164.0,92.457529
165.0,92.549042
166.0,92.638669
167.0,92.72724
168.0,92.81476
169.0,92.900379
170.0,92.984996
171.0,93.068623
172.0,93.150579
173.0,93.231463
174.0,93.311414
175.0,93.389904
176.0,93.467263
177.0,93.543741
178.0,93.61895
179.0,93.692977
180.0,93.766173
181.0,93.838273
182.0,93.909149
183.0,93.979241
184.0,94.048396
185.0,94.116291
186.0,94.183444
187.0,94.249806
188.0,94.314879
189.0,94.37925
190.0,94.442922
191.0,94.50536
192.0,94.567095
193.0,94.628169
194.0,94.688156
195.0,94.747392
196.0,94.806001
197.0,94.863659
198.0,94.920524
199.0,94.976797
200.0,95.032241
201.0,95.086856
202.0,95.140909
203.0,95.194248
204.0,95.246727
205.0,95.298673
206.0,95.350008
207.0,95.400457
208.0,95.4504
209.0,95.499828
210.0,95.548348
211.0,95.596387
212.0,95.643947
213.0,95.690682
214.0,95.73691
215.0,95.782683
216.0,95.827728
217.0,95.872232
218.0,95.916303
219.0,95.959736
220.0,96.002598
221.0,96.045049
222.0,96.086944
223.0,96.128242
224.0,96.169149
225.0,96.209576
226.0,96.249383
227.0,96.288818
228.0,96.327843
229.0,96.366228
230.0,96.404259
231.0,96.441935
232.0,96.478974
233.0,96.515664
234.0,96.552017
235.0,96.587804
236.0,96.623215
237.0,96.658305
238.0,96.692894
239.0,96.727084
240.0,96.760966
241.0,96.79441
242.0,96.827432
243.0,96.860161
244.0,96.892508
245.0,96.924414
246.0,96.95604
247.0,96.987336
248.0,97.018175
249.0,97.048745
250.0,97.079036
251.0,97.108853
252.0,97.138414
253.0,97.16772
254.0,97.196579
255.0,97.225174
256.0,97.253525
257.0,97.281478
258.0,97.309147
259.0,97.336582
260.0,97.363666
261.0,97.390448
262.0,97.417007
263.0,97.443257
264.0,97.469189
265.0,97.494906
266.0,97.520356
267.0,97.545472
268.0,97.570384
269.0,97.595064
270.0,97.619398
271.0,97.643536
272.0,97.667478
273.0,97.691061
274.0,97.714457
275.0,97.737664
276.0,97.760551
277.0,97.783234
278.0,97.805736
279.0,97.827953
280.0,97.849951
281.0,97.871776
282.0,97.893348
283.0,97.914688
284.0,97.935862
285.0,97.956815
286.0,97.977522
287.0,97.99807
288.0,98.018426
289.0,98.038525
290.0,98.058472
291.0,98.078253
292.0,98.097767
293.0,98.117135
294.0,98.136356
295.0,98.155314
296.0,98.174124
297.0,98.192794
298.0,98.211228
299.0,98.229502
300.0,98.247641
301.0,98.265571
302.0,98.283328
303.0,98.300956
304.0,98.318398
305.0,98.335659
306.0,98.352793
307.0,98.369767
308.0,98.386548
309.0,98.403208
310.0,98.419728
311.0,98.436047
312.0,98.452249
313.0,98.468332
314.0,98.484206
315.0,98.499967
316.0,98.515617
317.0,98.531071
318.0,98.546407
319.0,98.561636
320.0,98.576689
321.0,98.591615
322.0,98.606436
323.0,98.621103
324.0,98.635632
325.0,98.650061
326.0,98.664354
327.0,98.6785
328.0,98.69255
329.0,98.706481
330.0,98.720258
331.0,98.733942
332.0,98.747523
333.0,98.760943
334.0,98.774274
335.0,98.787515
336.0,98.800592
337.0,98.813581
338.0,98.826483
339.0,98.839238
340.0,98.851897
341.0,98.864472
342.0,98.876916
343.0,98.889255
344.0,98.901514
345.0,98.913656
346.0,98.925686
347.0,98.937639
348.0,98.949489
349.0,98.961221
350.0,98.972877
351.0,98.984444
352.0,98.995887
353.0,99.007257
354.0,99.01855
355.0,99.029713
356.0,99.040806
357.0,99.051828
358.0,99.062726
359.0,99.07355
360.0,99.084306
361.0,99.09495
362.0,99.105515
363.0,99.116013
364.0,99.126411
365.0,99.136724
366.0,99.146973
367.0,99.157132
368.0,99.167201
369.0,99.177208
370.0,99.187137
371.0,99.196969
372.0,99.206741
373.0,99.216446
374.0,99.226049
375.0,99.235594
376.0,99.245081
377.0,99.254462
378.0,99.263787
379.0,99.273056
380.0,99.282228
381.0,99.291339
382.0,99.300396
383.0,99.309366
384.0,99.31827
385.0,99.327121
386.0,99.335895
387.0,99.344598
388.0,99.35325
389.0,99.361833
390.0,99.370341
391.0,99.378799
392.0,99.387197
393.0,99.395515
394.0,99.403785
395.0,99.412003
396.0,99.420138
397.0,99.428225
398.0,99.436267
399.0,99.444224
400.0,99.452135
401.0,99.46
402.0,99.46779
403.0,99.475529
404.0,99.483224
405.0,99.49085
406.0,99.498422
407.0,99.50595
408.0,99.513419
409.0,99.520827
410.0,99.528195
411.0,99.535509
412.0,99.54276
413.0,99.549971
414.0,99.557135
415.0,99.564232
416.0,99.571291
417.0,99.578309
418.0,99.585257
419.0,99.592167
420.0,99.59904
421.0,99.605846
422.0,99.612613
423.0,99.619342
424.0,99.626012
425.0,99.632638
426.0,99.639229
427.0,99.645766
428.0,99.652256
429.0,99.658711
430.0,99.665118
431.0,99.671475
432.0,99.677799
433.0,99.68408
434.0,99.690309
435.0,99.696504
436.0,99.702663
437.0,99.708765
438.0,99.714836
439.0,99.720875
440.0,99.726855
441.0,99.732804
442.0,99.738722
443.0,99.744588
444.0,99.750419
445.0,99.756219
446.0,99.761972
447.0,99.767688
448.0,99.773375
449.0,99.779018
450.0,99.784622
451.0,99.790197
452.0,99.795734
453.0,99.801228
454.0,99.806694
455.0,99.812127
456.0,99.817515
457.0,99.822876
458.0,99.828207
459.0,99.833491
460.0,99.838749
461.0,99.84398
462.0,99.849164
463.0,99.854321
464.0,99.859452
465.0,99.864541
466.0,99.8696
467.0,99.874634
468.0,99.87963
469.0,99.884594
470.0,99.889533
471.0,99.894438
472.0,99.899308
473.0,99.904155
474.0,99.908971
475.0,99.91375
476.0,99.918507
477.0,99.923237
478.0,99.927927
479.0,99.932596
480.0,99.937241
481.0,99.941845
482.0,99.946428
483.0,99.950988
484.0,99.95551
485.0,99.960009
486.0,99.964486
487.0,99.968928
488.0,99.973345
489.0,99.977741
490.0,99.982106
491.0,99.986442
492.0,99.990759
493.0,99.995048
494.0,99.999306
495.0,100.00355
496.0,100.00776
497.0,100.01194
498.0,100.01611
499.0,100.02025
500.0,100.02436
501.0,100.02845
502.0,100.03252
503.0,100.03655
504.0,100.04057
505.0,100.04457
506.0,100.04854
507.0,100.05248
508.0,100.05641
509.0,100.06031
510.0,100.06419
511.0,100.06805
512.0,100.07188
513.0,100.0757
514.0,100.07949
515.0,100.08326
516.0,100.087
517.0,100.09073
518.0,100.09444
519.0,100.09812
520.0,100.10179
521.0,100.10543
522.0,100.10905
523.0,100.11265
524.0,100.11624
525.0,100.11979
526.0,100.12334
527.0,100.12686
528.0,100.13036
529.0,100.13384
530.0,100.13731
531.0,100.14075
532.0,100.14417
533.0,100.14758
534.0,100.15097
535.0,100.15433
536.0,100.15768
537.0,100.16101
538.0,100.16432
539.0,100.16762
540.0,100.1709
541.0,100.17415
542.0,100.1774
543.0,100.18062
544.0,100.18382
545.0,100.18701
546.0,100.19019
547.0,100.19334
548.0,100.19647
549.0,100.1996
550.0,100.2027
551.0,100.20578
552.0,100.20885
553.0,100.21191
554.0,100.21494
555.0,100.21797
556.0,100.22097
557.0,100.22396
558.0,100.22693
559.0,100.22989
560.0,100.23283
561.0,100.23576
562.0,100.23867
563.0,100.24156
564.0,100.24444
565.0,100.24731
566.0,100.25016
567.0,100.25299
568.0,100.25582
569.0,100.25862
570.0,100.26141
571.0,100.26419
572.0,100.26695
573.0,100.2697
574.0,100.27243
575.0,100.27515
576.0,100.27786
577.0,100.28055
578.0,100.28323
579.0,100.28589
580.0,100.28854
581.0,100.29118
582.0,100.2938
583.0,100.29641
584.0,100.29901
585.0,100.30159
586.0,100.30416
587.0,100.30672
588.0,100.30926
589.0,100.3118
590.0,100.31432
591.0,100.31682
592.0,100.31932
593.0,100.3218
594.0,100.32427
595.0,100.32672
596.0,100.32917
597.0,100.3316
598.0,100.33402
599.0,100.33643
600.0,100.33883
601.0,100.34121
602.0,100.34358
603.0,100.34595
604.0,100.34829
605.0,100.35063
606.0,100.35296
607.0,100.35527
608.0,100.35758
609.0,100.35987
610.0,100.36215
611.0,100.36442
612.0,100.36668
613.0,100.36893
614.0,100.37116
615.0,100.37339
616.0,100.37561
617.0,100.37781
618.0,100.38001
619.0,100.38219
620.0,100.38436
621.0,100.38653
622.0,100.38868
623.0,100.39082
624.0,100.39295
625.0,100.39508
626.0,100.39718
627.0,100.39929
628.0,100.40138
629.0,100.40346
630.0,100.40553
631.0,100.4076
632.0,100.40965
633.0,100.41169
634.0,100.41372
635.0,100.41575
636.0,100.41776
637.0,100.41977
638.0,100.42176
639.0,100.42375
640.0,100.42572
641.0,100.42769
642.0,100.42965
643.0,100.4316
644.0,100.43354
645.0,100.43547
646.0,100.43739
647.0,100.43931
648.0,100.44121
649.0,100.44311
650.0,100.445
651.0,100.44687
652.0,100.44874
653.0,100.45061
654.0,100.45246
655.0,100.4543
656.0,100.45614
657.0,100.45797
658.0,100.45978
659.0,100.4616
660.0,100.4634
661.0,100.46519
662.0,100.46698
663.0,100.46876
664.0,100.47053
665.0,100.47229
666.0,100.47405
667.0,100.4758
668.0,100.47753
669.0,100.47927
670.0,100.48099
671.0,100.48271
672.0,100.48441
673.0,100.48611
674.0,100.48781
675.0,100.48949
676.0,100.49117
677.0,100.49284
678.0,100.49451
679.0,100.49616
680.0,100.49781
681.0,100.49945
682.0,100.50109
683.0,100.50271
684.0,100.50433
685.0,100.50595
686.0,100.50755
687.0,100.50915
688.0,100.51075
689.0,100.51233
690.0,100.51391
691.0,100.51548
692.0,100.51704
693.0,100.5186
694.0,100.52015
695.0,100.5217
696.0,100.52323
697.0,100.52477
698.0,100.52629
699.0,100.52781
700.0,100.52932
701.0,100.53082
702.0,100.53232
703.0,100.53381
704.0,100.5353
705.0,100.53678
706.0,100.53825
707.0,100.53972
708.0,100.54118
709.0,100.54263
710.0,100.54408
711.0,100.54553
712.0,100.54696
713.0,100.54839
714.0,100.54982
715.0,100.55123
716.0,100.55265
717.0,100.55405
718.0,100.55545
719.0,100.55685
720.0,100.55824
721.0,100.55962
722.0,100.561
723.0,100.56237
724.0,100.56373
725.0,100.56509
726.0,100.56645
727.0,100.5678
728.0,100.56914
729.0,100.57048
730.0,100.57181
731.0,100.57314
732.0,100.57446
733.0,100.57577
734.0,100.57708
735.0,100.57839
736.0,100.57969
737.0,100.58098
738.0,100.58227
739.0,100.58356
740.0,100.58484
741.0,100.58611
742.0,100.58738
743.0,100.58864
744.0,100.5899
745.0,100.59115
746.0,100.5924
747.0,100.59364
748.0,100.59488
749.0,100.59611
750.0,100.59734
751.0,100.59857
752.0,100.59978
753.0,100.601
754.0,100.60221
755.0,100.60341
756.0,100.60461
757.0,100.6058
758.0,100.60699
759.0,100.60818
760.0,100.60936
761.0,100.61053
762.0,100.6117
763.0,100.61287
764.0,100.61403
765.0,100.61519
766.0,100.61634
767.0,100.61749
768.0,100.61863
769.0,100.61977
770.0,100.6209
771.0,100.62203
772.0,100.62316
773.0,100.62428
774.0,100.62539
775.0,100.62651
776.0,100.62761
777.0,100.62872
778.0,100.62982
779.0,100.63091
780.0,100.632
781.0,100.63309
782.0,100.63417
783.0,100.63525
784.0,100.63632
785.0,100.63739
786.0,100.63846
787.0,100.63952
788.0,100.64058
789.0,100.64163
790.0,100.64268
791.0,100.64373
792.0,100.64477
793.0,100.6458
794.0,100.64684
795.0,100.64787
796.0,100.64889
797.0,100.64992
798.0,100.65093
799.0,100.65195
800.0,100.65296
801.0,100.65396
802.0,100.65497
803.0,100.65597
804.0,100.65696
805.0,100.65795
806.0,100.65894
807.0,100.65992
808.0,100.6609
809.0,100.66188
810.0,100.66285
811.0,100.66382
812.0,100.66479
813.0,100.66575
814.0,100.66671
815.0,100.66766
816.0,100.66861
817.0,100.66956
818.0,100.67051
819.0,100.67145
820.0,100.67238
821.0,100.67332
822.0,100.67425
823.0,100.67517
824.0,100.6761
825.0,100.67702
826.0,100.67793
827.0,100.67885
828.0,100.67976
829.0,100.68066
830.0,100.68157
831.0,100.68247
832.0,100.68336
833.0,100.68426
834.0,100.68515
835.0,100.68603
836.0,100.68692
837.0,100.6878
838.0,100.68868
839.0,100.68955
840.0,100.69042
841.0,100.69129
842.0,100.69215
843.0,100.69301
844.0,100.69387
845.0,100.69473
846.0,100.69558
847.0,100.69643
848.0,100.69728
849.0,100.69812
850.0,100.69896
851.0,100.6998
852.0,100.70063
853.0,100.70146
854.0,100.70229
855.0,100.70311
856.0,100.70394
857.0,100.70475
858.0,100.70557
859.0,100.70638
860.0,100.70719
861.0,100.708
862.0,100.70881
863.0,100.70961
864.0,100.71041
865.0,100.7112
866.0,100.712
867.0,100.71279
868.0,100.71358
869.0,100.71436
870.0,100.71514
871.0,100.71592
872.0,100.7167
873.0,100.71748
874.0,100.71825
875.0,100.71902
876.0,100.71978
877.0,100.72055
878.0,100.72131
879.0,100.72206
880.0,100.72282
881.0,100.72357
882.0,100.72432
883.0,100.72507
884.0,100.72582
885.0,100.72656
886.0,100.7273
887.0,100.72803
888.0,100.72877
889.0,100.7295
890.0,100.73023
891.0,100.73096
892.0,100.73168
893.0,100.73241
894.0,100.73313
895.0,100.73384
896.0,100.73456
897.0,100.73527
898.0,100.73598
899.0,100.73669
900.0,100.73739
901.0,100.7381
902.0,100.7388
903.0,100.73949
904.0,100.74019
905.0,100.74088
906.0,100.74157
907.0,100.74226
908.0,100.74295
909.0,100.74363
910.0,100.74431
911.0,100.74499
912.0,100.74567
913.0,100.74634
914.0,100.74702
915.0,100.74769
916.0,100.74835
917.0,100.74902
918.0,100.74968
919.0,100.75035
920.0,100.751
921.0,100.75166
922.0,100.75232
923.0,100.75297
924.0,100.75362
925.0,100.75427
926.0,100.75491
927.0,100.75556
928.0,100.7562
929.0,100.75684
930.0,100.75747
931.0,100.75811
932.0,100.75874
933.0,100.75937
934.0,100.76
935.0,100.76063
936.0,100.76125
937.0,100.76188
938.0,100.7625
939.0,100.76312
940.0,100.76373
941.0,100.76435
942.0,100.76496
943.0,100.76557
944.0,100.76618
945.0,100.76679
946.0,100.76739
947.0,100.76799
948.0,100.76859
949.0,100.76919
950.0,100.76979
951.0,100.77039
952.0,100.77098
953.0,100.77157
954.0,100.77216
955.0,100.77275
956.0,100.77333
957.0,100.77391
958.0,100.7745
959.0,100.77508
960.0,100.77565
961.0,100.77623
962.0,100.7768
963.0,100.77738
964.0,100.77795
965.0,100.77851
966.0,100.77908
967.0,100.77965
968.0,100.78021
969.0,100.78077
970.0,100.78133
971.0,100.78189
972.0,100.78244
973.0,100.783
974.0,100.78355
975.0,100.7841
976.0,100.78465
977.0,100.7852
978.0,100.78574
979.0,100.78628
980.0,100.78683
981.0,100.78737
982.0,100.7879
983.0,100.78844
984.0,100.78898
985.0,100.78951
986.0,100.79004
987.0,100.79057
988.0,100.7911
989.0,100.79163
990.0,100.79215
991.0,100.79267
992.0,100.7932
993.0,100.79372
994.0,100.79424
995.0,100.79475
996.0,100.79527
997.0,100.79578
998.0,100.79629
999.0,100.7968
1000.0,100.79731
1001.0,100.79782
1002.0,100.79832
1003.0,100.79883
1004.0,100.79933
1005.0,100.79983
1006.0,100.80033
1007.0,100.80083
1008.0,100.80132
1009.0,100.80182
1010.0,100.80231
1011.0,100.8028
1012.0,100.80329
1013.0,100.80378
1014.0,100.80427
1015.0,100.80476
1016.0,100.80524
1017.0,100.80572
1018.0,100.8062
1019.0,100.80668
1020.0,100.80716
1021.0,100.80764
1022.0,100.80811
1023.0,100.80859
1024.0,100.80906
1025.0,100.80953
1026.0,100.81
1027.0,100.81047
1028.0,100.81093
1029.0,100.8114
1030.0,100.81186
1031.0,100.81233
1032.0,100.81279
1033.0,100.81325
1034.0,100.8137
1035.0,100.81416
1036.0,100.81462
1037.0,100.81507
1038.0,100.81552
1039.0,100.81597
1040.0,100.81642
1041.0,100.81687
1042.0,100.81732
1043.0,100.81777
1044.0,100.81821
1045.0,100.81865
1046.0,100.81909
1047.0,100.81954
1048.0,100.81997
1049.0,100.82041
1050.0,100.82085
1051.0,100.82128
1052.0,100.82172
1053.0,100.82215
1054.0,100.82258
1055.0,100.82301
1056.0,100.82344
1057.0,100.82387
1058.0,100.82429
1059.0,100.82472
1060.0,100.82514
1061.0,100.82556
1062.0,100.82598
1063.0,100.8264
1064.0,100.82682
1065.0,100.82724
1066.0,100.82766
1067.0,100.82807
1068.0,100.82848
1069.0,100.8289
1070.0,100.82931
1071.0,100.82972
1072.0,100.83013
1073.0,100.83053
1074.0,100.83094
1075.0,100.83135
1076.0,100.83175
1077.0,100.83215
1078.0,100.83255
1079.0,100.83295
1080.0,100.83335
1081.0,100.83375
1082.0,100.83415
1083.0,100.83454
1084.0,100.83494
1085.0,100.83533
1086.0,100.83572
1087.0,100.83612
1088.0,100.83651
1089.0,100.83689
1090.0,100.83728
1091.0,100.83767
1092.0,100.83805
1093.0,100.83844
1094.0,100.83882
1095.0,100.8392
1096.0,100.83958
1097.0,100.83996
1098.0,100.84034
1099.0,100.84072
1100.0,100.8411
1101.0,100.84147
1102.0,100.84185
1103.0,100.84222
1104.0,100.84259
1105.0,100.84296
1106.0,100.84333
1107.0,100.8437
1108.0,100.84407
1109.0,100.84444
1110.0,100.8448
1111.0,100.84517
1112.0,100.84553
1113.0,100.84589
1114.0,100.84625
1115.0,100.84661
1116.0,100.84697
1117.0,100.84733
1118.0,100.84769
1119.0,100.84805
1120.0,100.8484
1121.0,100.84876
1122.0,100.84911
1123.0,100.84946
1124.0,100.84981
1125.0,100.85016
1126.0,100.85051
1127.0,100.85086
1128.0,100.85121
1129.0,100.85155
1130.0,100.8519
1131.0,100.85224
1132.0,100.85259
1133.0,100.85293
1134.0,100.85327
1135.0,100.85361
1136.0,100.85395
1137.0,100.85429
1138.0,100.85463
1139.0,100.85496
1140.0,100.8553
1141.0,100.85563
1142.0,100.85597
1143.0,100.8563
1144.0,100.85663
1145.0,100.85696
1146.0,100.85729
1147.0,100.85762
1148.0,100.85795
1149.0,100.85828
1150.0,100.8586
1151.0,100.85893
1152.0,100.85925
1153.0,100.85958
1154.0,100.8599
1155.0,100.86022
1156.0,100.86054
1157.0,100.86086
1158.0,100.86118
1159.0,100.8615
1160.0,100.86182
1161.0,100.86213
1162.0,100.86245
1163.0,100.86276
1164.0,100.86308
1165.0,100.86339
1166.0,100.8637
1167.0,100.86401
1168.0,100.86432
1169.0,100.86463
1170.0,100.86494
1171.0,100.86525
1172.0,100.86556
1173.0,100.86586
1174.0,100.86617
1175.0,100.86647
1176.0,100.86678
1177.0,100.86708
1178.0,100.86738
1179.0,100.86768
1180.0,100.86798
1181.0,100.86828
1182.0,100.86858
1183.0,100.86888
1184.0,100.86917
1185.0,100.86947
1186.0,100.86976
1187.0,100.87006
1188.0,100.87035
1189.0,100.87064
1190.0,100.87094
1191.0,100.87123
1192.0,100.87152
1193.0,100.87181
1194.0,100.8721
1195.0,100.87238
1196.0,100.87267
1197.0,100.87296
1198.0,100.87324
1199.0,100.87353
1200.0,100.87381
1201.0,100.87409
1202.0,100.87438
1203.0,100.87466
1204.0,100.87494
1205.0,100.87522
1206.0,100.8755
1207.0,100.87578
1208.0,100.87605
1209.0,100.87633
1210.0,100.87661
1211.0,100.87688
1212.0,100.87716
1213.0,100.87743
1214.0,100.87771
1215.0,100.87798
1216.0,100.87825
1217.0,100.87852
1218.0,100.87879
1219.0,100.87906
1220.0,100.87933
1221.0,100.8796
1222.0,100.87987
1223.0,100.88013
1224.0,100.8804
1225.0,100.88066
1226.0,100.88093
1227.0,100.88119
1228.0,100.88145
1229.0,100.88172
1230.0,100.88198
1231.0,100.88224
1232.0,100.8825
1233.0,100.88276
1234.0,100.88302
1235.0,100.88328
1236.0,100.88353
1237.0,100.88379
1238.0,100.88405
1239.0,100.8843
1240.0,100.88456
1241.0,100.88481
1242.0,100.88506
1243.0,100.88532
1244.0,100.88557
1245.0,100.88582
1246.0,100.88607
1247.0,100.88632
1248.0,100.88657
1249.0,100.88682
